# m,M ->b,B
# x-axis: "Sqrt(S)"  from 20.000000 to 800.000000 N_points= 200
# Asymmetry
2.000000E+01 -6.231855E-02
2.391960E+01 -9.793151E-02
2.783920E+01 -1.414099E-01
3.175879E+01 -1.929512E-01
3.567839E+01 -2.523074E-01
3.959799E+01 -3.183563E-01
4.351759E+01 -3.885133E-01
4.743719E+01 -4.580684E-01
5.135678E+01 -5.197430E-01
5.527638E+01 -5.640294E-01
5.919598E+01 -5.809382E-01
6.311558E+01 -5.631536E-01
6.703518E+01 -5.092694E-01
7.095477E+01 -4.249348E-01
7.487437E+01 -3.208567E-01
7.879397E+01 -2.089710E-01
8.271357E+01 -9.915793E-02
8.663317E+01 2.183517E-03
9.055276E+01 9.194367E-02
9.447236E+01 1.693716E-01
9.839196E+01 2.350969E-01
1.023116E+02 2.903981E-01
1.062312E+02 3.367499E-01
1.101508E+02 3.755817E-01
1.140704E+02 4.081653E-01
1.179899E+02 4.356078E-01
1.219095E+02 4.588034E-01
1.258291E+02 4.785032E-01
1.297487E+02 4.953165E-01
1.336683E+02 5.097384E-01
1.375879E+02 5.221711E-01
1.415075E+02 5.329419E-01
1.454271E+02 5.423175E-01
1.493467E+02 5.505167E-01
1.532663E+02 5.577190E-01
1.571859E+02 5.640725E-01
1.611055E+02 5.697002E-01
1.650251E+02 5.747045E-01
1.689447E+02 5.791708E-01
1.728643E+02 5.831711E-01
1.767839E+02 5.867661E-01
1.807035E+02 5.900072E-01
1.846231E+02 5.929382E-01
1.885427E+02 5.955965E-01
1.924623E+02 5.980141E-01
1.963819E+02 6.002186E-01
2.003015E+02 6.022339E-01
2.042211E+02 6.040806E-01
2.081407E+02 6.057768E-01
2.120603E+02 6.073381E-01
2.159799E+02 6.087783E-01
2.198995E+02 6.101094E-01
2.238191E+02 6.113421E-01
2.277387E+02 6.124858E-01
2.316583E+02 6.135487E-01
2.355779E+02 6.145382E-01
2.394975E+02 6.154609E-01
2.434171E+02 6.163227E-01
2.473367E+02 6.171287E-01
2.512563E+02 6.178837E-01
2.551759E+02 6.185919E-01
2.590955E+02 6.192570E-01
2.630151E+02 6.198825E-01
2.669347E+02 6.204715E-01
2.708543E+02 6.210268E-01
2.747739E+02 6.215508E-01
2.786935E+02 6.220460E-01
2.826131E+02 6.225143E-01
2.865327E+02 6.229577E-01
2.904523E+02 6.233780E-01
2.943719E+02 6.237768E-01
2.982915E+02 6.241554E-01
3.022111E+02 6.245152E-01
3.061307E+02 6.248575E-01
3.100503E+02 6.251835E-01
3.139698E+02 6.254940E-01
3.178894E+02 6.257902E-01
3.218090E+02 6.260728E-01
3.257286E+02 6.263427E-01
3.296482E+02 6.266007E-01
3.335678E+02 6.268474E-01
3.374874E+02 6.270835E-01
3.414070E+02 6.273097E-01
3.453266E+02 6.275264E-01
3.492462E+02 6.277342E-01
3.531658E+02 6.279336E-01
3.570854E+02 6.281250E-01
3.610050E+02 6.283089E-01
3.649246E+02 6.284857E-01
3.688442E+02 6.286557E-01
3.727638E+02 6.288192E-01
3.766834E+02 6.289767E-01
3.806030E+02 6.291283E-01
3.845226E+02 6.292745E-01
3.884422E+02 6.294154E-01
3.923618E+02 6.295513E-01
3.962814E+02 6.296824E-01
4.002010E+02 6.298090E-01
4.041206E+02 6.299313E-01
4.080402E+02 6.300494E-01
4.119598E+02 6.301636E-01
4.158794E+02 6.302741E-01
4.197990E+02 6.303809E-01
4.237186E+02 6.304843E-01
4.276382E+02 6.305844E-01
4.315578E+02 6.306814E-01
4.354774E+02 6.307753E-01
4.393970E+02 6.308663E-01
4.433166E+02 6.309546E-01
4.472362E+02 6.310402E-01
4.511558E+02 6.311232E-01
4.550754E+02 6.312038E-01
4.589950E+02 6.312821E-01
4.629146E+02 6.313580E-01
4.668342E+02 6.314318E-01
4.707538E+02 6.315036E-01
4.746734E+02 6.315733E-01
4.785930E+02 6.316410E-01
4.825126E+02 6.317069E-01
4.864322E+02 6.317710E-01
4.903518E+02 6.318334E-01
4.942714E+02 6.318941E-01
4.981910E+02 6.319532E-01
5.021106E+02 6.320107E-01
5.060302E+02 6.320668E-01
5.099497E+02 6.321214E-01
5.138693E+02 6.321746E-01
5.177889E+02 6.322265E-01
5.217085E+02 6.322770E-01
5.256281E+02 6.323264E-01
5.295477E+02 6.323745E-01
5.334673E+02 6.324214E-01
5.373869E+02 6.324672E-01
5.413065E+02 6.325118E-01
5.452261E+02 6.325555E-01
5.491457E+02 6.325981E-01
5.530653E+02 6.326397E-01
5.569849E+02 6.326803E-01
5.609045E+02 6.327200E-01
5.648241E+02 6.327588E-01
5.687437E+02 6.327967E-01
5.726633E+02 6.328337E-01
5.765829E+02 6.328700E-01
5.805025E+02 6.329054E-01
5.844221E+02 6.329400E-01
5.883417E+02 6.329739E-01
5.922613E+02 6.330071E-01
5.961809E+02 6.330395E-01
6.001005E+02 6.330713E-01
6.040201E+02 6.331024E-01
6.079397E+02 6.331328E-01
6.118593E+02 6.331626E-01
6.157789E+02 6.331918E-01
6.196985E+02 6.332204E-01
6.236181E+02 6.332484E-01
6.275377E+02 6.332758E-01
6.314573E+02 6.333027E-01
6.353769E+02 6.333291E-01
6.392965E+02 6.333549E-01
6.432161E+02 6.333802E-01
6.471357E+02 6.334050E-01
6.510553E+02 6.334294E-01
6.549749E+02 6.334533E-01
6.588945E+02 6.334767E-01
6.628141E+02 6.334996E-01
6.667337E+02 6.335222E-01
6.706533E+02 6.335443E-01
6.745729E+02 6.335660E-01
6.784925E+02 6.335873E-01
6.824121E+02 6.336082E-01
6.863317E+02 6.336287E-01
6.902513E+02 6.336489E-01
6.941709E+02 6.336686E-01
6.980905E+02 6.336881E-01
7.020101E+02 6.337072E-01
7.059296E+02 6.337259E-01
7.098492E+02 6.337443E-01
7.137688E+02 6.337624E-01
7.176884E+02 6.337802E-01
7.216080E+02 6.337977E-01
7.255276E+02 6.338148E-01
7.294472E+02 6.338317E-01
7.333668E+02 6.338483E-01
7.372864E+02 6.338646E-01
7.412060E+02 6.338806E-01
7.451256E+02 6.338964E-01
7.490452E+02 6.339119E-01
7.529648E+02 6.339272E-01
7.568844E+02 6.339422E-01
7.608040E+02 6.339569E-01
7.647236E+02 6.339714E-01
7.686432E+02 6.339857E-01
7.725628E+02 6.339998E-01
7.764824E+02 6.340136E-01
7.804020E+02 6.340272E-01
7.843216E+02 6.340406E-01
7.882412E+02 6.340538E-01
7.921608E+02 6.340667E-01
7.960804E+02 6.340795E-01
8.000000E+02 6.340921E-01
